
##TITLE=acetonitrile,,
##JCAMP-DX=5.00   $$ cheminfo.org Cary Ascii converter v1.0
##DATA TYPE=UV/VIS spectrum
##DATA CLASS=PEAK TABLE
##DATE=04.02.08
##TIME=14:42:55
##FIRSTX=400.0
##LASTX=190.0
##ORIGIN= Ecole Polytechnique Federale de Lausanne
##SPECTROMETER DATA SYSTEM=Varian Cary 50 bio
##XUNITS=Nanometers
##YUNITS=Abs
##NPOINTS=421
##PEAK TABLE=(XY..XY)
400.06,0.13705,
399.44,0.13666,
398.98,0.13654,
398.52,0.13682,
398.05,0.1361,
397.43,0.13645,
396.97,0.1369,
396.51,0.13675,
396.04,0.13687,
395.58,0.13656,
394.96,0.13665,
394.49,0.13648,
394.03,0.13655,
393.57,0.13657,
392.95,0.13677,
392.48,0.13681,
392.02,0.13662,
391.55,0.13679,
390.93,0.13742,
390.47,0.13757,
390.01,0.13774,
389.54,0.13874,
389.08,0.13844,
388.46,0.13866,
387.99,0.13929,
387.53,0.13992,
387.06,0.13953,
386.44,0.13994,
385.98,0.1405,
385.51,0.14116,
385.05,0.14075,
384.43,0.14099,
383.96,0.1409,
383.5,0.14117,
383.03,0.14211,
382.57,0.14254,
381.95,0.14264,
381.48,0.1429,
381.02,0.14311,
380.55,0.14326,
379.93,0.14319,
379.47,0.14328,
379,0.14302,
378.54,0.14353,
378.07,0.14303,
377.45,0.14342,
376.99,0.14366,
376.52,0.14365,
376.06,0.14407,
375.44,0.14474,
374.97,0.14502,
374.5,0.14485,
374.04,0.1449,
373.57,0.14472,
372.95,0.14505,
372.49,0.14554,
372.02,0.14534,
371.55,0.14508,
370.93,0.14515,
370.47,0.1455,
370,0.14447,
369.54,0.14509,
369.07,0.14555,
368.45,0.14476,
367.98,0.14484,
367.52,0.14436,
367.05,0.14475,
366.43,0.14459,
365.96,0.1447,
365.5,0.14534,
365.03,0.14525,
364.56,0.14573,
363.94,0.14536,
363.48,0.14532,
363.01,0.14356,
362.54,0.14404,
362.08,0.14311,
361.46,0.14348,
360.99,0.14369,
360.52,0.14374,
360.06,0.14356,
359.43,0.14471,
358.97,0.14439,
358.5,0.14437,
358.03,0.14418,
357.57,0.14336,
356.94,0.14398,
356.48,0.14422,
356.01,0.14425,
355.54,0.14416,
355.08,0.14426,
354.45,0.14409,
353.99,0.1442,
353.52,0.14442,
353.05,0.14414,
352.43,0.14481,
351.96,0.14454,
351.5,0.14466,
351.03,0.1439,
350.56,0.14456,
349.94,0.14495,
349.47,0.14473,
349,0.1454,
348.54,0.1445,
348.07,0.14544,
347.45,0.14522,
346.98,0.1448,
346.51,0.14461,
346.04,0.1443,
345.58,0.1446,
344.95,0.14374,
344.49,0.14365,
344.02,0.14382,
343.55,0.14464,
342.93,0.1437,
342.46,0.14378,
341.99,0.14486,
341.52,0.14482,
341.06,0.14426,
340.43,0.14425,
339.96,0.14394,
339.5,0.14392,
339.03,0.14398,
338.56,0.14422,
337.94,0.144,
337.47,0.14423,
337,0.14362,
336.53,0.14258,
336.06,0.14325,
335.44,0.14322,
334.97,0.1435,
334.5,0.14374,
334.04,0.14391,
333.57,0.14317,
332.94,0.14276,
332.47,0.14262,
332.01,0.143,
331.54,0.14365,
331.07,0.144,
330.44,0.14368,
329.98,0.14342,
329.51,0.14355,
329.04,0.14369,
328.57,0.14396,
327.95,0.14369,
327.48,0.14381,
327.01,0.14404,
326.54,0.14356,
326.07,0.14424,
325.45,0.14402,
324.98,0.14432,
324.51,0.14475,
324.04,0.14391,
323.57,0.14445,
322.95,0.14543,
322.48,0.14601,
322.01,0.14584,
321.54,0.14621,
321.07,0.14648,
320.44,0.14649,
319.97,0.14641,
319.51,0.14654,
319.04,0.14656,
318.57,0.14701,
317.94,0.14653,
317.47,0.14745,
317,0.14749,
316.53,0.14788,
316.06,0.14732,
315.44,0.14698,
314.97,0.1472,
314.5,0.14685,
314.03,0.14707,
313.56,0.14788,
312.93,0.1477,
312.47,0.14802,
312,0.1476,
311.53,0.14826,
311.06,0.14798,
310.43,0.14792,
309.96,0.14743,
309.49,0.14715,
309.02,0.14728,
308.55,0.14706,
307.93,0.14737,
307.46,0.14805,
306.99,0.14841,
306.52,0.14808,
306.05,0.14827,
305.58,0.14795,
304.95,0.14809,
304.48,0.14798,
304.01,0.1474,
303.54,0.14814,
303.07,0.1475,
302.44,0.14789,
301.97,0.14664,
301.5,0.14686,
301.03,0.14805,
300.56,0.14766,
299.93,0.14767,
299.46,0.14739,
298.99,0.14801,
298.52,0.14803,
298.05,0.14768,
297.43,0.14773,
296.96,0.14735,
296.49,0.14753,
296.01,0.1471,
295.54,0.14754,
295.07,0.14742,
294.45,0.14624,
293.98,0.14696,
293.51,0.14669,
293.03,0.14687,
292.56,0.14691,
291.94,0.14632,
291.47,0.14676,
290.99,0.14624,
290.52,0.14664,
290.05,0.14744,
289.43,0.14775,
288.95,0.14734,
288.48,0.14758,
288.01,0.14903,
287.54,0.14814,
287.07,0.14833,
286.44,0.14851,
285.97,0.14876,
285.5,0.14884,
285.03,0.14915,
284.56,0.14862,
283.93,0.14897,
283.46,0.14895,
282.99,0.14902,
282.52,0.14834,
282.05,0.14844,
281.57,0.14903,
280.95,0.14911,
280.48,0.14974,
280,0.14981,
279.53,0.14981,
279.06,0.1504,
278.43,0.15096,
277.96,0.15075,
277.49,0.15081,
277.02,0.15101,
276.55,0.15144,
276.08,0.15134,
275.45,0.15107,
274.98,0.15109,
274.5,0.14998,
274.03,0.15048,
273.56,0.15,
272.93,0.14933,
272.46,0.14932,
271.99,0.14822,
271.52,0.14776,
271.04,0.14703,
270.57,0.14805,
269.94,0.14856,
269.47,0.14917,
269,0.14905,
268.53,0.14961,
268.06,0.15009,
267.43,0.14947,
266.95,0.14996,
266.48,0.14991,
266.01,0.14943,
265.54,0.15074,
265.07,0.151,
264.44,0.15129,
263.97,0.15198,
263.49,0.15235,
263.02,0.15237,
262.55,0.15353,
262.08,0.15348,
261.45,0.15422,
260.97,0.1548,
260.5,0.15402,
260.03,0.15384,
259.56,0.15398,
258.93,0.15387,
258.46,0.15352,
257.98,0.15467,
257.51,0.15505,
257.04,0.15502,
256.57,0.15578,
255.94,0.15613,
255.46,0.15631,
254.99,0.157,
254.52,0.15763,
254.05,0.15769,
253.57,0.15758,
252.94,0.15817,
252.47,0.15839,
252,0.15841,
251.52,0.15893,
251.05,0.15917,
250.42,0.15985,
249.95,0.16061,
249.48,0.16122,
249,0.16112,
248.53,0.16198,
248.06,0.16425,
247.43,0.16534,
246.95,0.16372,
246.48,0.16509,
246.01,0.16553,
245.53,0.16765,
245.06,0.16857,
244.43,0.17203,
243.96,0.17394,
243.49,0.17708,
243.01,0.1795,
242.54,0.1819,
242.07,0.18365,
241.43,0.18818,
240.96,0.19031,
240.49,0.19587,
240.02,0.19976,
239.54,0.20273,
239.07,0.20995,
238.44,0.21589,
237.96,0.22304,
237.49,0.22822,
237.02,0.23531,
236.54,0.24468,
236.07,0.24858,
235.44,0.26306,
234.97,0.27171,
234.49,0.28088,
234.02,0.29119,
233.55,0.29818,
233.07,0.3121,
232.44,0.32892,
231.97,0.34009,
231.49,0.35494,
231.02,0.36253,
230.55,0.38128,
230.07,0.39726,
229.44,0.41256,
228.97,0.42751,
228.49,0.43381,
228.02,0.45174,
227.55,0.46587,
227.07,0.47803,
226.44,0.50362,
225.97,0.50838,
225.49,0.5562,
225.02,0.57556,
224.55,0.58701,
224.07,0.60971,
223.44,0.62956,
222.97,0.65485,
222.49,0.67356,
222.02,0.68533,
221.54,0.70768,
221.07,0.72365,
220.44,0.75051,
219.96,0.76751,
219.49,0.77876,
219.02,0.80096,
218.54,0.81609,
218.07,0.83119,
217.43,0.85751,
216.96,0.8669,
216.49,0.88607,
216.01,0.89711,
215.54,0.9096,
215.06,0.92721,
214.43,0.9406,
213.96,0.95372,
213.48,0.96326,
213.01,0.97342,
212.53,0.98663,
212.06,0.99115,
211.43,1.0044,
210.95,1.0102,
210.48,1.0162,
210,1.0262,
209.53,1.0274,
209.05,1.033,
208.42,1.0406,
207.95,1.0433,
207.47,1.0493,
207,1.05,
206.52,1.0517,
206.05,1.0553,
205.57,1.057,
204.94,1.0561,
204.47,1.0566,
203.99,1.0568,
203.52,1.0584,
203.04,1.0576,
202.57,1.059,
201.93,1.0579,
201.46,1.0612,
200.99,1.0624,
200.51,1.0628,
200.04,1.0648,
199.56,1.0697,
198.93,1.0743,
198.45,1.0799,
197.98,1.0833,
197.5,1.0943,
197.03,1.104,
196.55,1.112,
196.08,1.1376,
195.44,1.1608,
194.97,1.1916,
194.49,1.2285,
194.02,1.2574,
193.54,1.3155,
193.07,1.3381,
192.44,1.4357,
191.96,1.5221,
191.49,1.5833,
191.01,1.6418,
190.53,1.6985,
190.06,1.9408,
##END=
